# N1 5
# L 13.286
# DELTAIN 0.1267
# BETA 0.833333
# MCTIME 3600000
# BTIME 10000
# THBIN 50
#
#
# *****THERMALIZATION*****
#
# ENERGY	VIRIAL	RHO
-0.0474762	-0.0947313	0.990759
-0.0487025	-0.0971443	0.976658
-0.0496896	-0.0990853	0.957727
-0.0505618	-0.100811	0.94262
-0.0515379	-0.102728	0.928673
-0.0525742	-0.104764	0.905913
-0.0538893	-0.107341	0.890462
-0.0561136	-0.111665	0.870122
-0.0577663	-0.114882	0.857612
-0.0593577	-0.117978	0.836967
-0.0610018	-0.121149	0.817677
-0.0634461	-0.125768	0.805732
-0.0656429	-0.12985	0.794018
-0.066048	-0.130835	0.776913
-0.0677631	-0.134134	0.770491
-0.0687355	-0.13606	0.761578
-0.069877	-0.138248	0.756814
-0.0705601	-0.139568	0.733025
-0.0713831	-0.141104	0.709427
-0.0735423	-0.145218	0.685844
-0.0764118	-0.150534	0.682973
-0.0806413	-0.158269	0.676097
-0.0826106	-0.162106	0.657375
-0.086217	-0.168484	0.64189
-0.0880039	-0.171009	0.631221
-0.0909346	-0.175791	0.61981
-0.095487	-0.18383	0.59672
-0.100008	-0.190722	0.585128
-0.102827	-0.193942	0.573489
-0.106148	-0.199883	0.552585
-0.109042	-0.204424	0.523077
-0.112688	-0.211083	0.501329
-0.113498	-0.213151	0.496278
-0.118758	-0.215952	0.498098
-0.129275	-0.22052	0.479012
-0.144628	-0.229318	0.476683
-0.148311	-0.228887	0.475934
-0.149951	-0.230228	0.47232
-0.153606	-0.243876	0.473707
-0.160669	-0.239474	0.480213
-0.163545	-0.234034	0.483832
-0.166209	-0.24206	0.457352
-0.167626	-0.215764	0.4663
-0.169415	-0.196442	0.46515
-0.173322	-0.212186	0.456271
-0.170241	-0.254014	0.451019
-0.170966	-0.256649	0.445945
-0.1771	-0.243868	0.443532
-0.177851	-0.233691	0.437855
-0.169839	-0.234857	0.414435
-0.183587	-0.261177	0.395924
-0.191849	-0.284322	0.38834
-0.187356	-0.228414	0.382371
-0.183155	-0.17039	0.375375
-0.185048	-0.109804	0.361902
-0.185202	-0.0909365	0.34624
-0.179865	-0.0697464	0.346358
-0.17628	-0.0798668	0.354559
-0.185311	-0.138242	0.337099
-0.180196	-0.0874119	0.332699
-0.182832	-0.106817	0.323775
-0.181514	-0.0902467	0.313994
-0.194216	-0.172653	0.291944
-0.199944	-0.216672	0.277321
-0.204661	-0.231167	0.261223
-0.203836	-0.237459	0.256978
-0.197035	-0.192451	0.248846
-0.204852	-0.1543	0.247632
-0.217096	-0.146098	0.244422
-0.221625	-0.154102	0.234813
-0.227644	-0.211037	0.220909
-0.222428	-0.170516	0.198097
-0.229062	-0.236307	0.173814
-0.234853	-0.254353	0.170419
-0.236511	-0.22178	0.179097
-0.232961	-0.199042	0.167534
-0.235435	-0.215359	0.164219
-0.239312	-0.211408	0.159365
-0.239258	-0.185708	0.147316
-0.254495	-0.264557	0.156484
-0.262904	-0.280537	0.158515
-0.245563	-0.207089	0.144948
-0.242406	-0.187642	0.142772
-0.237766	-0.152958	0.15295
-0.233472	-0.166255	0.166598
-0.238953	-0.160664	0.165009
-0.239048	-0.171209	0.179948
-0.247395	-0.173576	0.17376
-0.254095	-0.191201	0.168366
-0.256496	-0.217776	0.175288
-0.261658	-0.185396	0.186125
-0.256824	-0.116588	0.173793
-0.258384	-0.151353	0.159554
-0.27464	-0.222652	0.153319
-0.272521	-0.229843	0.164486
-0.262664	-0.198814	0.18374
-0.255058	-0.0887712	0.180935
-0.255207	-0.024048	0.171749
-0.266764	-0.0984111	0.162074
-0.276517	-0.161333	0.156629
-0.286491	-0.19958	0.154949
-0.274821	-0.0141026	0.158246
-0.273205	-0.0180416	0.163515
-0.278771	0.0353461	0.166896
-0.295005	-0.0282838	0.151632
-0.300165	-0.142583	0.154374
-0.301271	-0.157704	0.145241
-0.289667	-0.0557981	0.136795
-0.287594	-0.0488034	0.141017
-0.276857	0.0165627	0.154448
-0.282628	-0.0304748	0.168951
-0.288597	-0.0756925	0.177854
-0.28021	-0.0389416	0.157987
-0.277627	-0.000521774	0.153205
-0.296501	-0.084137	0.153626
-0.298946	-0.161702	0.148457
-0.314437	-0.216629	0.149016
-0.310431	-0.224971	0.149547
-0.302927	-0.199903	0.15048
-0.309659	-0.151896	0.133784
-0.310066	-0.130033	0.129675
-0.312472	-0.190602	0.122693
-0.318637	-0.202958	0.143047
-0.328742	-0.232234	0.160261
-0.323165	-0.229635	0.16816
-0.332292	-0.254754	0.150476
-0.33311	-0.22651	0.145548
-0.323159	-0.16282	0.158828
-0.331565	-0.145368	0.167894
-0.328924	-0.0989934	0.166219
-0.320418	0.0131618	0.153461
-0.329025	-0.0919253	0.156988
-0.339399	-0.0642088	0.159211
-0.343649	-0.0151949	0.151725
-0.340276	0.0458355	0.151932
-0.349273	-0.0562276	0.149891
-0.335445	0.0216919	0.147537
-0.335641	0.0505579	0.140812
-0.3269	0.145109	0.131101
-0.319904	0.208536	0.132376
-0.332745	0.0884623	0.127214
-0.348968	-0.0280907	0.124417
-0.346702	-0.0874823	0.121855
-0.333869	-0.11771	0.140377
-0.334795	-0.132415	0.140999
-0.331781	-0.128367	0.150211
-0.328679	-0.174736	0.145213
-0.309977	-0.130709	0.134064
-0.290706	-0.0398428	0.10742
-0.278218	-0.0477109	0.117075
-0.273529	-0.0539978	0.127507
-0.273723	-0.0137595	0.126699
-0.291612	-0.127146	0.117539
-0.293742	-0.174276	0.107596
-0.294641	-0.176485	0.0921075
-0.294472	-0.194598	0.0781261
-0.320948	-0.338133	0.0698789
-0.323202	-0.349979	0.0729803
-0.320228	-0.295297	0.0681609
-0.321319	-0.303262	0.0675217
-0.314758	-0.38472	0.0747313
-0.31352	-0.37941	0.0688658
-0.308993	-0.322641	0.0692072
-0.309437	-0.266363	0.0652632
-0.310528	-0.20905	0.0731058
-0.311474	-0.231077	0.0644217
-0.297754	-0.24258	0.0552431
-0.291925	-0.28208	0.0636242
-0.282253	-0.267755	0.0624312
-0.285777	-0.263505	0.0504474
-0.285469	-0.236789	0.0362107
-0.275285	-0.131958	0.0319049
-0.267673	-0.0414327	0.0387543
-0.256132	0.010903	0.0389717
-0.253065	0.0819904	0.0474738
-0.262357	0.081492	0.0522977
-0.272751	0.0319156	0.0554796
-0.284421	-0.0868198	0.0557726
-0.290317	-0.161348	0.034766
-0.29792	-0.201636	0.0231044
-0.308644	-0.305768	0.0320165
-0.30621	-0.279062	0.0349858
-0.294935	-0.334077	0.0337028
-0.290247	-0.273694	0.0356466
-0.290386	-0.27141	0.0415832
-0.291526	-0.297981	0.0498597
-0.299475	-0.308389	0.0509753
-0.305537	-0.268897	0.055475
-0.305821	-0.271593	0.0606763
-0.312493	-0.259497	0.0509692
-0.306093	-0.287745	0.042401
-0.306404	-0.301933	0.0586492
-0.300565	-0.291799	0.0528218
-0.296897	-0.26927	0.0526875
-0.302765	-0.275759	0.0513676
-0.290898	-0.218692	0.0587135
-0.277677	-0.0367343	0.0587835
-0.285847	-0.0590757	0.0523638
-0.306187	-0.15393	0.0539924
-0.330647	-0.267961	0.0484164
-0.328045	-0.257301	0.0325679
-0.315414	-0.268535	0.0251738
-0.316994	-0.289097	0.0121381
-0.301637	-0.199025	0.000213407
-0.304043	-0.257448	-0.00959505
-0.291243	-0.226458	-0.0237518
-0.256928	-0.0932876	-0.0292523
-0.264392	-0.0806872	-0.0238986
-0.277322	-0.0933609	-0.0188773
-0.288395	-0.13257	-0.0128953
-0.310368	-0.266523	-0.0169346
-0.324309	-0.336264	-0.0157994
-0.324251	-0.359008	-0.0230152
-0.320427	-0.331684	-0.0243604
-0.330846	-0.341675	-0.0198689
-0.327887	-0.33949	-0.0184195
-0.326656	-0.325871	-0.0191002
-0.311725	-0.345481	-0.0173343
-0.301528	-0.301422	-0.00705591
-0.28323	-0.240553	0.00170181
-0.286087	-0.272011	0.00516039
-0.280336	-0.244227	0.0120001
-0.285683	-0.158249	0.00688687
-0.282886	-0.132488	0.0053204
-0.307539	-0.237404	0.0042466
-0.305968	-0.288604	0.000268815
-0.312535	-0.296996	0.0110091
-0.32799	-0.335363	0.0192439
-0.338148	-0.405041	0.0292549
-0.329219	-0.421911	0.0177026
-0.327989	-0.417232	0.0239817
-0.323097	-0.346039	0.0238873
-0.326435	-0.308134	0.0274319
-0.311834	-0.20601	0.0220298
-0.32233	-0.270658	0.0284767
-0.329502	-0.353677	0.0372491
-0.31936	-0.308737	0.0351941
-0.319236	-0.274322	0.0473387
-0.315991	-0.295002	0.044143
-0.324342	-0.246228	0.0626055
-0.315255	-0.275774	0.0639392
-0.285645	-0.12443	0.077566
-0.284545	-0.112963	0.0907184
-0.281357	-0.1657	0.0876529
-0.29336	-0.21686	0.0763603
-0.323236	-0.301959	0.0860086
-0.317589	-0.32919	0.0866144
-0.308219	-0.299241	0.0760262
-0.307398	-0.338116	0.0701822
-0.309324	-0.349	0.0580939
-0.306076	-0.376672	0.0765023
-0.295289	-0.35427	0.0780948
-0.294742	-0.352637	0.0760582
-0.305101	-0.341928	0.0654224
-0.30634	-0.311987	0.0659688
-0.305385	-0.241064	0.0646276
-0.292179	-0.0996622	0.0656629
-0.2928	-0.116693	0.0768403
-0.286682	-0.142434	0.078256
-0.300484	-0.197076	0.0704759
-0.289915	-0.051962	0.0689054
-0.293697	-0.0499612	0.0753469
-0.302905	-0.117053	0.0820835
-0.309533	-0.181975	0.0796223
-0.309922	-0.159093	0.0636478
-0.313194	-0.197848	0.0556748
-0.289406	-0.121716	0.054691
-0.262606	0.060783	0.0481117
-0.282058	-0.103995	0.0548831
-0.283306	-0.137994	0.0500481
-0.285992	-0.157634	0.0375816
-0.302061	-0.280149	0.0422876
-0.314409	-0.346129	0.0371298
-0.306926	-0.357011	0.0408281
-0.31282	-0.381057	0.0265126
-0.303884	-0.329012	0.0332489
-0.289888	-0.165352	0.0340289
-0.288465	-0.133452	0.025081
-0.312098	-0.205614	0.0232062
-0.322408	-0.244871	0.0204276
-0.327889	-0.26857	0.0246309
-0.317679	-0.133462	0.0298784
-0.31922	-0.0747242	0.0258947
-0.333587	-0.219164	0.0251146
-0.348271	-0.266409	0.0323484
-0.352932	-0.228068	0.0220651
-0.386726	-0.193113	0.0273219
-0.388501	-0.261234	0.0431275
-0.37385	-0.1072	0.0531458
-0.376415	-0.129697	0.0619493
-0.353125	-0.0351983	0.0650706
-0.353387	-0.100134	0.0627027
-0.3662	-0.175494	0.0674137
-0.377582	-0.18533	0.0646812
-0.369209	-0.0806151	0.0647975
-0.353263	-0.00455291	0.064186
-0.358637	-0.0033056	0.0662868
-0.384516	-0.101021	0.0659145
-0.380443	-0.0781093	0.0724634
-0.393905	-0.258674	0.0792453
-0.394691	-0.318764	0.0892321
-0.394107	-0.357782	0.081183
-0.38846	-0.303244	0.0888384
-0.374523	-0.182554	0.101175
-0.378571	-0.153537	0.087636
-0.399287	-0.220821	0.0829863
-0.408863	-0.343518	0.0802258
-0.399929	-0.348413	0.0911383
-0.38519	-0.324022	0.0900079
-0.378849	-0.223449	0.0935128
-0.387698	-0.191475	0.102789
-0.37672	-0.14841	0.0812229
-0.381075	-0.205118	0.0641074
-0.389694	-0.22853	0.0555004
-0.40462	-0.277989	0.0436495
-0.385382	-0.145948	0.0522609
-0.385448	-0.28581	0.0413932
-0.380936	-0.369036	0.0283625
-0.381446	-0.317849	0.0210556
-0.376938	-0.304279	0.0224905
-0.37257	-0.254306	0.0247354
-0.36878	-0.287877	0.0326345
-0.378637	-0.385125	0.027862
-0.381974	-0.410975	0.0270485
-0.374295	-0.421085	0.025911
-0.363281	-0.415487	0.0401002
-0.344555	-0.434269	0.0531989
-0.359503	-0.404198	0.0513597
-0.355313	-0.394266	0.0628522
-0.353961	-0.414575	0.0633063
-0.350091	-0.4067	0.0443329
-0.354896	-0.426603	0.0518456
-0.351323	-0.41683	0.0648975
-0.360379	-0.44996	0.0702708
-0.364882	-0.396115	0.0881802
-0.351753	-0.278404	0.099053
-0.368544	-0.242065	0.108467
-0.377217	-0.243008	0.093644
-0.364842	-0.159167	0.0933304
-0.353024	-0.0433495	0.0846815
-0.372058	-0.0481063	0.0766068
-0.375796	-0.195916	0.0728763
-0.372435	-0.318979	0.0796678
-0.376039	-0.241258	0.074715
-0.386272	-0.277657	0.0734686
-0.394193	-0.311354	0.086298
-0.373392	-0.292896	0.0903051
-0.358115	-0.290901	0.0975939
-0.351634	-0.292956	0.0874545
-0.36504	-0.333496	0.0911603
-0.359451	-0.328197	0.0949371
-0.367889	-0.328907	0.0891716
-0.364522	-0.301786	0.0951662
-0.354078	-0.232068	0.0994486
-0.357239	-0.242122	0.100942
-0.362097	-0.237305	0.110467
-0.349005	-0.201194	0.114527
-0.34181	-0.16451	0.108944
-0.327052	-0.118426	0.093404
-0.354619	-0.256186	0.0768228
-0.371323	-0.324437	0.0711609
-0.363683	-0.26677	0.0578833
-0.350744	-0.148217	0.0453368
-0.352465	-0.111842	0.0378917
-0.341699	-0.0388681	0.0291537
-0.347872	-0.0312429	0.0402947
-0.351153	0.0199261	0.0327749
-0.382538	-0.0713414	0.0240656
-0.404927	-0.232822	0.0335141
-0.407528	-0.287953	0.0317261
-0.392233	-0.141094	0.0406656
-0.373825	-0.0729481	0.0392348
-0.379439	-0.100008	0.0221108
-0.361257	-0.146229	0.0158841
-0.319923	0.0021866	0.0147732
-0.333291	-0.102664	0.0134928
-0.310655	0.136745	0.0310525
-0.318292	0.207245	0.0436394
-0.316183	0.231186	0.0521706
-0.344907	0.0802458	0.0477092
-0.361068	-0.00326752	0.0381343
-0.367581	-0.136631	0.0389609
-0.359418	-0.143952	0.0359014
-0.371295	-0.259247	0.0327392
-0.348626	-0.27933	0.0365738
-0.341629	-0.304617	0.0354767
-0.348334	-0.37464	0.0244481
-0.358034	-0.258843	0.0260952
-0.37653	-0.264724	0.0215179
-0.384245	-0.253268	0.023237
-0.403052	-0.33458	0.0347178
-0.407694	-0.364746	0.036179
-0.40143	-0.36039	0.0220331
-0.392308	-0.306819	0.0115973
-0.402363	-0.316576	0.00323063
-0.407333	-0.325844	-0.000569471
-0.406326	-0.244784	0.00163042
-0.411465	-0.311513	0.0203652
-0.398039	-0.231282	0.030436
-0.405299	-0.379931	0.0337534
-0.410131	-0.439033	0.0192886
-0.395906	-0.322316	0.0163191
-0.396328	-0.327332	0.00947595
-0.402013	-0.339753	0.00869738
-0.40086	-0.298827	0.00490668
-0.38794	-0.161962	0.00450319
-0.365545	-0.0812412	0.0135729
-0.36162	-0.129081	0.018673
-0.387789	-0.173223	0.0104506
-0.416965	-0.230579	0.00709995
#
# THERMTIME 10250
# DELTA 0.1267
#
#
# ***** ERROR BAR ESTIMATE *****
#
# ENERGY	VIRIAL
-0.382078	0.146475	-0.197724
-0.385675	0.149278	-0.254768
-0.431591	0.187	-0.231005
-0.432881	0.187967	-0.26376
-0.432583	0.187817	-0.217704
-0.409478	0.168536	-0.206544
-0.443912	0.197995	-0.286259
-0.487105	0.237978	-0.249826
-0.439602	0.194457	-0.215475
-0.451264	0.204507	-0.264106
-0.450392	0.204318	-0.269589
-0.443118	0.197574	-0.213838
-0.423174	0.18011	-0.256154
-0.417215	0.174884	-0.17294
-0.428538	0.184949	-0.19741
-0.462656	0.215024	-0.230296
-0.485297	0.236565	-0.200926
-0.478264	0.229305	-0.272459
-0.454577	0.207784	-0.299595
-0.463407	0.215674	-0.217076
-0.414359	0.172534	-0.20185
-0.474829	0.226577	-0.246065
-0.430585	0.186731	-0.208032
-0.42969	0.185363	-0.172226
-0.442415	0.19649	-0.227547
-0.449453	0.203858	-0.196719
-0.412269	0.171839	-0.274761
-0.504516	0.256434	-0.219393
-0.470655	0.223738	-0.270374
-0.492402	0.244098	-0.218367
-0.538737	0.292204	-0.313757
-0.511898	0.263846	-0.260344
-0.562559	0.318039	-0.209533
-0.516192	0.268058	-0.196385
-0.538444	0.292116	-0.256767
-0.527048	0.279802	-0.292286
-0.542152	0.295068	-0.255224
-0.658061	0.435269	-0.260951
-0.560396	0.315987	-0.236531
-0.475088	0.227451	-0.322095
-0.428098	0.183954	-0.19619
-0.427973	0.183953	-0.226782
-0.456767	0.209478	-0.167681
-0.470617	0.222777	-0.223474
-0.539511	0.291705	-0.24711
-0.475246	0.227014	-0.235051
-0.42757	0.183564	-0.241273
-0.471936	0.223341	-0.280759
-0.481932	0.233396	-0.254766
-0.424665	0.1816	-0.255672
-0.441614	0.195567	-0.293762
-0.422952	0.180257	-0.274031
-0.398204	0.159618	-0.225272
-0.442674	0.196932	-0.209975
-0.411065	0.169665	-0.196906
-0.466238	0.21859	-0.219061
-0.442057	0.196951	-0.177344
-0.431093	0.186423	-0.252688
-0.426488	0.182606	-0.250731
-0.393187	0.15594	-0.250812
-0.398539	0.159448	-0.212722
-0.414238	0.173389	-0.119316
-0.388039	0.15139	-0.140635
-0.395662	0.157629	-0.218219
-0.408416	0.167289	-0.213537
-0.447471	0.201591	-0.183403
-0.403509	0.163461	-0.27878
-0.455033	0.209013	-0.202808
-0.496559	0.247808	-0.267672
-0.432398	0.188037	-0.199456
-0.439547	0.194028	-0.254936
-0.441678	0.196671	-0.252851
-0.493935	0.244711	-0.193881
-0.439982	0.195524	-0.214722
-0.401604	0.163059	-0.227505
-0.37915	0.144535	-0.264566
-0.421515	0.178335	-0.240605
-0.427528	0.183365	-0.174149
-0.417648	0.175109	-0.207375
-0.462871	0.214752	-0.271609
-0.427695	0.18389	-0.240677
-0.434291	0.189172	-0.173274
-0.458313	0.210889	-0.193618
-0.400403	0.161409	-0.149614
-0.395839	0.159801	-0.243725
-0.42856	0.184745	-0.261508
-0.397126	0.158782	-0.250866
-0.440152	0.194392	-0.250936
-0.465905	0.218628	-0.325282
-0.423549	0.180651	-0.24459
-0.437705	0.192255	-0.283145
-0.408344	0.167948	-0.2475
-0.481643	0.233141	-0.233841
-0.456141	0.209252	-0.240059
-0.455418	0.209911	-0.24431
-0.496837	0.247368	-0.218101
-0.445481	0.201265	-0.304367
-0.450032	0.203759	-0.256236
-0.493063	0.244408	-0.187432
-0.515303	0.266357	-0.200043
-0.504946	0.25583	-0.249306
-0.484537	0.235711	-0.169359
-0.452483	0.20545	-0.274149
-0.471654	0.223237	-0.19502
-0.497666	0.248694	-0.229446
-0.502786	0.25399	-0.275812
-0.491243	0.242851	-0.259897
-0.44208	0.196671	-0.302544
-0.394583	0.157165	-0.159888
-0.388267	0.151456	-0.19841
-0.404401	0.164053	-0.197185
-0.399777	0.160819	-0.210294
-0.376531	0.142301	-0.198296
-0.361624	0.131501	-0.227874
-0.407106	0.1664	-0.2235
-0.410802	0.170239	-0.22665
-0.379121	0.145203	-0.177106
-0.382415	0.147687	-0.188475
-0.428232	0.184935	-0.244723
-0.414842	0.172909	-0.277968
-0.432053	0.18735	-0.201214
-0.412143	0.170792	-0.230806
-0.415106	0.17303	-0.211992
-0.443592	0.197526	-0.211135
-0.370919	0.138413	-0.152427
-0.396533	0.157884	-0.192341
-0.408262	0.167806	-0.263693
-0.422277	0.179102	-0.200821
-0.436272	0.191015	-0.199297
-0.446252	0.20057	-0.177749
-0.439337	0.193623	-0.23053
-0.444919	0.199631	-0.180874
-0.473009	0.224324	-0.2231
-0.456065	0.208655	-0.197564
-0.444258	0.198849	-0.303661
-0.465748	0.218237	-0.21916
-0.405111	0.164956	-0.278233
-0.441995	0.196099	-0.229205
-0.44077	0.195137	-0.253944
-0.449653	0.20304	-0.217571
-0.441876	0.196797	-0.170899
-0.429848	0.18612	-0.235155
-0.390493	0.153086	-0.225134
-0.400955	0.161632	-0.205811
-0.431908	0.187851	-0.218886
-0.441167	0.196156	-0.269532
-0.420085	0.177454	-0.250952
-0.403399	0.163217	-0.209434
-0.429257	0.18482	-0.193853
-0.413395	0.172834	-0.149212
-0.418996	0.176509	-0.166986
-0.428176	0.183974	-0.261566
-0.448456	0.201986	-0.217385
-0.490714	0.242	-0.256355
-0.436731	0.192929	-0.207348
-0.40164	0.1622	-0.216467
-0.393606	0.156037	-0.234256
-0.388205	0.151658	-0.224168
-0.377235	0.143061	-0.287682
-0.408761	0.168014	-0.222873
-0.38887	0.151894	-0.217567
-0.410957	0.169754	-0.256971
-0.436913	0.191509	-0.264688
-0.46784	0.220184	-0.220691
-0.419776	0.176695	-0.233815
-0.456573	0.209844	-0.290686
-0.448093	0.201864	-0.238793
-0.421838	0.178915	-0.195998
-0.38074	0.145467	-0.152984
-0.436672	0.191675	-0.190979
-0.441953	0.196421	-0.222878
-0.45208	0.206025	-0.243935
-0.463467	0.215706	-0.24804
-0.503907	0.254837	-0.334286
-0.444258	0.199581	-0.280103
-0.432466	0.189459	-0.197356
-0.444123	0.19809	-0.226111
-0.475837	0.227496	-0.222502
-0.494106	0.244763	-0.248946
-0.451504	0.204618	-0.235156
-0.430957	0.186533	-0.263805
-0.503725	0.254961	-0.271583
-0.552079	0.306347	-0.186394
-0.563431	0.318866	-0.224489
-0.421442	0.178605	-0.207248
-0.419435	0.176477	-0.270579
-0.42966	0.186132	-0.239855
-0.509777	0.260482	-0.258876
-0.488815	0.239625	-0.254883
-0.468328	0.221254	-0.242637
-0.430138	0.185994	-0.270181
-0.496255	0.247616	-0.230602
-0.499225	0.249808	-0.282638
-0.468381	0.220455	-0.210122
-0.446101	0.200149	-0.239111
-0.46009	0.212718	-0.252816
-0.505723	0.256996	-0.151812
-0.485144	0.236687	-0.262906
-0.473662	0.225881	-0.199537
-0.473659	0.225308	-0.25312
-0.44243	0.196801	-0.265151
-0.475488	0.227009	-0.254473
-0.518978	0.270242	-0.311087
-0.465964	0.218458	-0.195845
-0.430814	0.186361	-0.212003
-0.412053	0.170721	-0.22645
-0.430839	0.186854	-0.226973
-0.45895	0.214062	-0.219756
-0.476336	0.228221	-0.19838
-0.465389	0.218721	-0.133347
-0.429033	0.184713	-0.255083
-0.4252	0.181422	-0.210149
-0.450048	0.203351	-0.231143
-0.455485	0.20838	-0.164667
-0.438005	0.192747	-0.218414
-0.421754	0.178854	-0.290053
-0.439473	0.19396	-0.277869
-0.422009	0.179067	-0.257654
-0.416093	0.173795	-0.239124
-0.427269	0.183634	-0.219068
-0.396425	0.157675	-0.261921
-0.4015	0.162036	-0.186734
-0.439602	0.194474	-0.215081
-0.488876	0.240718	-0.245867
-0.428021	0.184568	-0.176059
-0.43661	0.191579	-0.22135
-0.418808	0.176545	-0.198424
-0.442475	0.19655	-0.277962
-0.403184	0.163837	-0.18637
-0.459773	0.213508	-0.241507
-0.459165	0.211807	-0.263444
-0.457776	0.210201	-0.268127
-0.450023	0.202887	-0.266572
-0.401312	0.162472	-0.165566
-0.352825	0.125504	-0.240864
-0.434563	0.189953	-0.240771
-0.44107	0.195431	-0.201565
-0.432676	0.188006	-0.229569
-0.400305	0.160849	-0.255384
-0.413216	0.171442	-0.219552
-0.413958	0.171947	-0.187276
-0.384595	0.148508	-0.23901
-0.414191	0.172219	-0.301511
-0.42375	0.180262	-0.227551
-0.458958	0.21478	-0.221631
-0.504531	0.256915	-0.195373
-0.496536	0.247255	-0.234923
-0.500528	0.252009	-0.249309
-0.533007	0.285976	-0.228824
-0.508154	0.260118	-0.239369
-0.593703	0.354712	-0.254529
-0.588141	0.346854	-0.262428
-0.547901	0.302621	-0.174112
-0.542929	0.296037	-0.297963
-0.514823	0.266091	-0.261177
-0.472665	0.224352	-0.266307
-0.450383	0.204221	-0.194081
-0.422753	0.179432	-0.219002
-0.41903	0.176644	-0.239144
-0.466568	0.218948	-0.173409
-0.466031	0.218368	-0.175472
-0.449476	0.204794	-0.181937
-0.48109	0.232719	-0.250207
-0.402954	0.163369	-0.221078
-0.504754	0.25892	-0.293379
-0.515288	0.26789	-0.242998
