# N1 5
# L 74.3861
# DELTAIN 0.1333
# BETA 0.714286
# MCTIME 3600000
# BTIME 10000
# THBIN 50
#
#
# *****THERMALIZATION*****
#
# ENERGY	VIRIAL	RHO
-1.52321e-06	-3.04642e-06	0.999666
-1.52446e-06	-3.04892e-06	0.998944
-1.52536e-06	-3.05073e-06	0.998399
-1.52684e-06	-3.05369e-06	0.99747
-1.52861e-06	-3.05722e-06	0.99659
-1.53054e-06	-3.06108e-06	0.995661
-1.53145e-06	-3.06291e-06	0.99508
-1.53265e-06	-3.06531e-06	0.994544
-1.53399e-06	-3.06797e-06	0.993303
-1.53435e-06	-3.0687e-06	0.993098
-1.5353e-06	-3.0706e-06	0.992703
-1.53732e-06	-3.07465e-06	0.99214
-1.53873e-06	-3.07745e-06	0.991728
-1.53973e-06	-3.07947e-06	0.99126
-1.54212e-06	-3.08424e-06	0.990221
-1.54344e-06	-3.08688e-06	0.989845
-1.54409e-06	-3.08818e-06	0.988991
-1.54477e-06	-3.08955e-06	0.988854
-1.54603e-06	-3.09207e-06	0.988301
-1.54625e-06	-3.0925e-06	0.988506
-1.54709e-06	-3.09419e-06	0.988597
-1.54828e-06	-3.09655e-06	0.987966
-1.54957e-06	-3.09915e-06	0.986889
-1.55085e-06	-3.10171e-06	0.98683
-1.55238e-06	-3.10476e-06	0.986369
-1.55373e-06	-3.10745e-06	0.985977
-1.55415e-06	-3.1083e-06	0.98513
-1.55481e-06	-3.10962e-06	0.984285
-1.55645e-06	-3.1129e-06	0.983312
-1.55783e-06	-3.11565e-06	0.982716
-1.56006e-06	-3.12013e-06	0.981728
-1.56076e-06	-3.12152e-06	0.981522
-1.56287e-06	-3.12575e-06	0.981055
-1.56396e-06	-3.12792e-06	0.981294
-1.56515e-06	-3.1303e-06	0.980652
-1.5671e-06	-3.13419e-06	0.980445
-1.56895e-06	-3.13789e-06	0.979401
-1.56941e-06	-3.13881e-06	0.978805
-1.57052e-06	-3.14103e-06	0.977798
-1.5719e-06	-3.14381e-06	0.977561
-1.57372e-06	-3.14744e-06	0.976669
-1.57466e-06	-3.14933e-06	0.976125
-1.576e-06	-3.152e-06	0.975046
-1.57741e-06	-3.15481e-06	0.97468
-1.57932e-06	-3.15864e-06	0.973571
-1.57987e-06	-3.15974e-06	0.972748
-1.58096e-06	-3.16192e-06	0.97252
-1.58131e-06	-3.16262e-06	0.97258
-1.58103e-06	-3.16206e-06	0.97253
-1.58286e-06	-3.16571e-06	0.972411
-1.58494e-06	-3.16989e-06	0.970927
-1.58552e-06	-3.17104e-06	0.96981
-1.58678e-06	-3.17355e-06	0.970007
-1.58681e-06	-3.17362e-06	0.970426
-1.58807e-06	-3.17613e-06	0.97001
-1.58894e-06	-3.17789e-06	0.969715
-1.59103e-06	-3.18207e-06	0.968787
-1.59096e-06	-3.18192e-06	0.968601
-1.59198e-06	-3.18396e-06	0.967853
-1.59558e-06	-3.19116e-06	0.967552
-1.5981e-06	-3.1962e-06	0.966698
-1.59952e-06	-3.19903e-06	0.966155
-1.60029e-06	-3.20058e-06	0.965669
-1.60334e-06	-3.20668e-06	0.965239
-1.60557e-06	-3.21115e-06	0.965419
-1.60731e-06	-3.21461e-06	0.9647
-1.60734e-06	-3.21468e-06	0.963291
-1.60893e-06	-3.21786e-06	0.9623
-1.60764e-06	-3.21528e-06	0.961548
-1.6066e-06	-3.2132e-06	0.961082
-1.60668e-06	-3.21337e-06	0.960837
-1.60815e-06	-3.21629e-06	0.960262
-1.60882e-06	-3.21764e-06	0.960829
-1.6126e-06	-3.2252e-06	0.960184
-1.61338e-06	-3.22676e-06	0.95964
-1.61238e-06	-3.22475e-06	0.960087
-1.61347e-06	-3.22695e-06	0.95925
-1.61597e-06	-3.23195e-06	0.959418
-1.61867e-06	-3.23733e-06	0.958883
-1.62067e-06	-3.24133e-06	0.957503
-1.62188e-06	-3.24376e-06	0.956413
-1.6242e-06	-3.2484e-06	0.956093
-1.62774e-06	-3.25549e-06	0.955781
-1.63067e-06	-3.26134e-06	0.954269
-1.63349e-06	-3.26697e-06	0.953699
-1.63674e-06	-3.27347e-06	0.952514
-1.64075e-06	-3.2815e-06	0.951243
-1.64046e-06	-3.28092e-06	0.950928
-1.64278e-06	-3.28556e-06	0.950339
-1.64299e-06	-3.28598e-06	0.948442
-1.63937e-06	-3.27874e-06	0.947812
-1.63969e-06	-3.27938e-06	0.948032
-1.64214e-06	-3.28427e-06	0.946671
-1.64539e-06	-3.29078e-06	0.944291
-1.64723e-06	-3.29445e-06	0.942531
-1.65152e-06	-3.30304e-06	0.940968
-1.65431e-06	-3.30861e-06	0.940026
-1.65274e-06	-3.30549e-06	0.940173
-1.65408e-06	-3.30816e-06	0.939872
-1.6552e-06	-3.31041e-06	0.939208
-1.65674e-06	-3.31347e-06	0.939013
-1.65728e-06	-3.31455e-06	0.939527
-1.65655e-06	-3.31309e-06	0.939774
-1.65518e-06	-3.31035e-06	0.939885
-1.65698e-06	-3.31396e-06	0.938545
-1.65929e-06	-3.31859e-06	0.938266
-1.66205e-06	-3.3241e-06	0.938851
-1.66454e-06	-3.32907e-06	0.938327
-1.66904e-06	-3.33808e-06	0.937667
-1.67122e-06	-3.34244e-06	0.936592
-1.67627e-06	-3.35254e-06	0.935876
-1.67352e-06	-3.34703e-06	0.936848
-1.67489e-06	-3.34978e-06	0.935658
-1.67576e-06	-3.35152e-06	0.934574
-1.6803e-06	-3.36059e-06	0.932817
-1.68023e-06	-3.36046e-06	0.933568
-1.68237e-06	-3.36474e-06	0.933088
-1.68551e-06	-3.37101e-06	0.931578
-1.68726e-06	-3.37452e-06	0.930981
-1.68782e-06	-3.37564e-06	0.930419
-1.68786e-06	-3.37571e-06	0.930403
-1.69102e-06	-3.38204e-06	0.92961
-1.69241e-06	-3.38481e-06	0.92926
-1.69375e-06	-3.38751e-06	0.929658
-1.69422e-06	-3.38843e-06	0.928575
-1.69568e-06	-3.39136e-06	0.92739
-1.69587e-06	-3.39175e-06	0.927262
-1.69717e-06	-3.39434e-06	0.92648
-1.70142e-06	-3.40284e-06	0.925316
-1.70656e-06	-3.41312e-06	0.924721
-1.71152e-06	-3.42304e-06	0.924223
-1.71514e-06	-3.43028e-06	0.923372
-1.7147e-06	-3.4294e-06	0.923322
-1.7159e-06	-3.4318e-06	0.922457
-1.7161e-06	-3.4322e-06	0.922853
-1.72184e-06	-3.44367e-06	0.922193
-1.72594e-06	-3.45187e-06	0.920708
-1.72871e-06	-3.45741e-06	0.920327
-1.73006e-06	-3.46012e-06	0.919022
-1.73253e-06	-3.46506e-06	0.917781
-1.72804e-06	-3.45609e-06	0.91731
-1.72873e-06	-3.45746e-06	0.916611
-1.73164e-06	-3.46328e-06	0.916752
-1.73581e-06	-3.47161e-06	0.916027
-1.74039e-06	-3.48079e-06	0.914104
-1.74333e-06	-3.48665e-06	0.914165
-1.74585e-06	-3.4917e-06	0.912118
-1.7478e-06	-3.49559e-06	0.910268
-1.75236e-06	-3.50473e-06	0.908711
-1.7546e-06	-3.5092e-06	0.906962
-1.75873e-06	-3.51746e-06	0.907232
-1.76079e-06	-3.52157e-06	0.906394
-1.76254e-06	-3.52508e-06	0.905721
-1.7644e-06	-3.5288e-06	0.905647
-1.76504e-06	-3.53007e-06	0.904089
-1.76519e-06	-3.53039e-06	0.905166
-1.76337e-06	-3.52673e-06	0.905927
-1.7672e-06	-3.53439e-06	0.905552
-1.76797e-06	-3.53594e-06	0.905237
-1.77369e-06	-3.54737e-06	0.903602
-1.77137e-06	-3.54273e-06	0.904483
-1.76681e-06	-3.53362e-06	0.905286
-1.7694e-06	-3.53881e-06	0.902673
-1.76705e-06	-3.53409e-06	0.900456
-1.76841e-06	-3.53682e-06	0.900171
-1.7704e-06	-3.54079e-06	0.900729
-1.76916e-06	-3.53832e-06	0.900285
-1.77077e-06	-3.54155e-06	0.898042
-1.77286e-06	-3.54573e-06	0.898065
-1.77156e-06	-3.54311e-06	0.897783
-1.77199e-06	-3.54398e-06	0.897341
-1.77795e-06	-3.5559e-06	0.89632
-1.78089e-06	-3.56179e-06	0.896318
-1.78226e-06	-3.56452e-06	0.895551
-1.78419e-06	-3.56839e-06	0.894663
-1.78088e-06	-3.56176e-06	0.894312
-1.78213e-06	-3.56425e-06	0.893575
-1.78443e-06	-3.56886e-06	0.893435
-1.78496e-06	-3.56992e-06	0.893754
-1.78563e-06	-3.57126e-06	0.892206
-1.79656e-06	-3.59312e-06	0.890039
-1.79685e-06	-3.5937e-06	0.888849
-1.79697e-06	-3.59393e-06	0.88785
-1.8002e-06	-3.60039e-06	0.88772
-1.80551e-06	-3.61102e-06	0.884451
-1.80505e-06	-3.61009e-06	0.883673
-1.80515e-06	-3.6103e-06	0.884146
-1.80678e-06	-3.61356e-06	0.882398
-1.81337e-06	-3.62673e-06	0.879402
-1.8218e-06	-3.6436e-06	0.878297
-1.82709e-06	-3.65417e-06	0.875996
-1.82781e-06	-3.65563e-06	0.874228
-1.83525e-06	-3.6705e-06	0.872471
-1.83967e-06	-3.67933e-06	0.872298
-1.83645e-06	-3.67291e-06	0.87188
-1.84647e-06	-3.69294e-06	0.872389
-1.8551e-06	-3.7102e-06	0.872821
-1.85673e-06	-3.71345e-06	0.873509
-1.85746e-06	-3.71492e-06	0.874748
-1.85809e-06	-3.71617e-06	0.877074
-1.85501e-06	-3.71002e-06	0.87725
-1.85778e-06	-3.71557e-06	0.876441
-1.85561e-06	-3.71122e-06	0.876954
-1.8546e-06	-3.70921e-06	0.87469
-1.85234e-06	-3.70468e-06	0.875473
-1.84978e-06	-3.69956e-06	0.875185
-1.84677e-06	-3.69355e-06	0.876199
-1.85417e-06	-3.70835e-06	0.875999
-1.8621e-06	-3.72419e-06	0.875147
-1.86374e-06	-3.72748e-06	0.875791
-1.86789e-06	-3.73577e-06	0.873269
-1.8673e-06	-3.73459e-06	0.872749
-1.87153e-06	-3.74305e-06	0.873095
-1.87017e-06	-3.74033e-06	0.874292
-1.87365e-06	-3.7473e-06	0.874627
-1.86567e-06	-3.73134e-06	0.876704
-1.85832e-06	-3.71664e-06	0.875657
-1.8624e-06	-3.72479e-06	0.875013
-1.86258e-06	-3.72516e-06	0.875292
-1.86394e-06	-3.72787e-06	0.875862
-1.86414e-06	-3.72828e-06	0.874271
-1.87249e-06	-3.74497e-06	0.872731
-1.87074e-06	-3.74148e-06	0.869399
-1.87542e-06	-3.75084e-06	0.868724
-1.88263e-06	-3.76525e-06	0.866746
-1.89613e-06	-3.79227e-06	0.865763
-1.90907e-06	-3.81814e-06	0.863596
-1.91242e-06	-3.82484e-06	0.862479
-1.91616e-06	-3.83232e-06	0.860572
-1.91391e-06	-3.82781e-06	0.859768
-1.91741e-06	-3.83483e-06	0.858745
-1.90408e-06	-3.80816e-06	0.859079
-1.89945e-06	-3.7989e-06	0.859189
-1.90059e-06	-3.80118e-06	0.860205
-1.904e-06	-3.80801e-06	0.85965
-1.9079e-06	-3.81581e-06	0.860105
-1.9088e-06	-3.81761e-06	0.859943
-1.91209e-06	-3.82418e-06	0.857155
-1.91389e-06	-3.82777e-06	0.855288
-1.90921e-06	-3.81842e-06	0.855164
-1.90962e-06	-3.81923e-06	0.853424
-1.90941e-06	-3.81881e-06	0.85282
-1.91759e-06	-3.83519e-06	0.850252
-1.91893e-06	-3.83787e-06	0.849619
-1.91916e-06	-3.83832e-06	0.851438
-1.92549e-06	-3.85097e-06	0.850198
-1.92546e-06	-3.85092e-06	0.849141
-1.92549e-06	-3.85098e-06	0.848496
-1.92398e-06	-3.84796e-06	0.848003
-1.91625e-06	-3.8325e-06	0.849005
-1.92694e-06	-3.85387e-06	0.848067
-1.93221e-06	-3.86443e-06	0.847168
-1.94268e-06	-3.88535e-06	0.845729
-1.95299e-06	-3.90597e-06	0.844864
-1.95317e-06	-3.90633e-06	0.843246
-1.9485e-06	-3.897e-06	0.846629
-1.95724e-06	-3.91449e-06	0.84812
-1.9608e-06	-3.92159e-06	0.844584
-1.96364e-06	-3.92727e-06	0.843333
-1.97174e-06	-3.94347e-06	0.844655
-1.98319e-06	-3.96638e-06	0.845854
-1.98927e-06	-3.97854e-06	0.844057
-1.98753e-06	-3.97505e-06	0.8434
-1.99021e-06	-3.98042e-06	0.840684
-1.99552e-06	-3.99103e-06	0.839486
-1.99704e-06	-3.99408e-06	0.838525
-1.99638e-06	-3.99275e-06	0.837215
-2.00334e-06	-4.00667e-06	0.838115
-2.00373e-06	-4.00746e-06	0.835618
-2.00604e-06	-4.01207e-06	0.834156
-2.00262e-06	-4.00524e-06	0.837437
-1.99738e-06	-3.99476e-06	0.839262
-2.00172e-06	-4.00343e-06	0.839825
-2.00551e-06	-4.01101e-06	0.838194
-2.02432e-06	-4.04864e-06	0.835394
-2.02906e-06	-4.05812e-06	0.833795
-2.00704e-06	-4.01407e-06	0.833269
-1.99972e-06	-3.99943e-06	0.83038
-2.01111e-06	-4.02221e-06	0.829205
-2.01366e-06	-4.02733e-06	0.827741
-2.00795e-06	-4.01589e-06	0.824717
-2.00532e-06	-4.01064e-06	0.824743
-2.0063e-06	-4.01261e-06	0.823773
-2.00834e-06	-4.01668e-06	0.822957
-2.01765e-06	-4.03529e-06	0.821416
-2.01806e-06	-4.03611e-06	0.820602
-2.0108e-06	-4.0216e-06	0.818519
-2.01065e-06	-4.0213e-06	0.816832
-2.01858e-06	-4.03717e-06	0.815396
-2.02701e-06	-4.05402e-06	0.815169
-2.02971e-06	-4.05942e-06	0.813553
-2.04475e-06	-4.0895e-06	0.811785
-2.05143e-06	-4.10287e-06	0.812393
-2.05119e-06	-4.10238e-06	0.810155
-2.04686e-06	-4.09373e-06	0.807647
-2.05245e-06	-4.1049e-06	0.808301
-2.04911e-06	-4.09822e-06	0.807959
-2.05793e-06	-4.11587e-06	0.806388
-2.0605e-06	-4.12099e-06	0.805668
-2.05929e-06	-4.11858e-06	0.805141
-2.06742e-06	-4.13483e-06	0.805772
-2.08684e-06	-4.17368e-06	0.807157
-2.09616e-06	-4.19232e-06	0.805095
-2.09813e-06	-4.19627e-06	0.80453
-2.09684e-06	-4.19367e-06	0.803945
-2.09941e-06	-4.19883e-06	0.803998
-2.10482e-06	-4.20965e-06	0.803154
-2.11434e-06	-4.22869e-06	0.804123
-2.13352e-06	-4.26704e-06	0.802309
-2.13612e-06	-4.27225e-06	0.80071
-2.13454e-06	-4.26908e-06	0.798618
-2.13642e-06	-4.27285e-06	0.799599
-2.13738e-06	-4.27475e-06	0.800902
-2.15274e-06	-4.30549e-06	0.799737
-2.15537e-06	-4.31073e-06	0.798563
-2.16321e-06	-4.32643e-06	0.798908
-2.17351e-06	-4.34702e-06	0.7987
-2.17517e-06	-4.35034e-06	0.798084
-2.18767e-06	-4.37534e-06	0.799632
-2.18134e-06	-4.36268e-06	0.799358
-2.19565e-06	-4.3913e-06	0.796146
-2.1985e-06	-4.397e-06	0.795048
-2.19453e-06	-4.38907e-06	0.795613
-2.18517e-06	-4.37035e-06	0.794413
-2.19197e-06	-4.38394e-06	0.794803
-2.20519e-06	-4.41037e-06	0.796488
-2.2024e-06	-4.4048e-06	0.796247
-2.21713e-06	-4.43426e-06	0.795051
-2.22261e-06	-4.44521e-06	0.794426
-2.23466e-06	-4.46931e-06	0.79263
-2.23309e-06	-4.46617e-06	0.791871
-2.23181e-06	-4.46361e-06	0.790289
-2.22195e-06	-4.4439e-06	0.79003
-2.23509e-06	-4.47019e-06	0.78949
-2.27054e-06	-4.54108e-06	0.789647
-2.28156e-06	-4.56311e-06	0.790285
-2.28454e-06	-4.56909e-06	0.790831
-2.28679e-06	-4.57358e-06	0.792094
-2.27687e-06	-4.55374e-06	0.793425
-2.26298e-06	-4.52595e-06	0.793894
-2.24997e-06	-4.49993e-06	0.794226
-2.23997e-06	-4.47994e-06	0.793912
-2.23594e-06	-4.47188e-06	0.791838
-2.24099e-06	-4.48198e-06	0.794177
-2.27068e-06	-4.54137e-06	0.793994
-2.26533e-06	-4.53066e-06	0.79443
-2.26202e-06	-4.52405e-06	0.793745
-2.27806e-06	-4.55611e-06	0.793638
-2.28923e-06	-4.57846e-06	0.791824
-2.28839e-06	-4.57677e-06	0.789153
-2.29555e-06	-4.59109e-06	0.786295
-2.29684e-06	-4.59368e-06	0.787479
-2.31433e-06	-4.62865e-06	0.78784
-2.32189e-06	-4.64378e-06	0.788613
-2.32294e-06	-4.64588e-06	0.787208
-2.35303e-06	-4.70605e-06	0.785312
-2.33424e-06	-4.66847e-06	0.783975
-2.3363e-06	-4.67259e-06	0.783344
-2.33887e-06	-4.67773e-06	0.781692
-2.34113e-06	-4.68226e-06	0.779368
-2.34891e-06	-4.69782e-06	0.77727
-2.34209e-06	-4.68419e-06	0.77784
-2.32881e-06	-4.65762e-06	0.77824
-2.34791e-06	-4.69582e-06	0.778047
-2.36296e-06	-4.72591e-06	0.775288
-2.36046e-06	-4.72092e-06	0.775109
-2.34701e-06	-4.69401e-06	0.775621
-2.31892e-06	-4.63784e-06	0.776063
-2.33639e-06	-4.67277e-06	0.77475
-2.33869e-06	-4.67738e-06	0.775785
-2.35228e-06	-4.70456e-06	0.775175
-2.35978e-06	-4.71956e-06	0.771963
-2.39937e-06	-4.79874e-06	0.770233
-2.40482e-06	-4.80964e-06	0.77276
-2.40898e-06	-4.81796e-06	0.771587
-2.42229e-06	-4.84458e-06	0.7716
-2.42758e-06	-4.85515e-06	0.771087
-2.43649e-06	-4.87298e-06	0.771985
-2.43845e-06	-4.87689e-06	0.770895
-2.43091e-06	-4.86182e-06	0.768528
-2.41994e-06	-4.83988e-06	0.768747
-2.40754e-06	-4.81507e-06	0.766494
-2.41716e-06	-4.83432e-06	0.762251
-2.42131e-06	-4.84263e-06	0.759258
-2.42933e-06	-4.85865e-06	0.761045
-2.43626e-06	-4.87251e-06	0.763917
-2.44891e-06	-4.89782e-06	0.76239
-2.45675e-06	-4.91349e-06	0.761551
-2.45608e-06	-4.91215e-06	0.760569
-2.46348e-06	-4.92695e-06	0.760339
-2.44845e-06	-4.8969e-06	0.756249
-2.44855e-06	-4.8971e-06	0.755032
-2.43969e-06	-4.87937e-06	0.754457
-2.44377e-06	-4.88753e-06	0.755546
-2.45808e-06	-4.91616e-06	0.75487
-2.47035e-06	-4.94069e-06	0.75254
-2.47678e-06	-4.95355e-06	0.750603
-2.47254e-06	-4.94508e-06	0.751357
-2.46833e-06	-4.93666e-06	0.749378
-2.48174e-06	-4.96348e-06	0.749726
-2.48827e-06	-4.97654e-06	0.748505
-2.48682e-06	-4.97364e-06	0.74763
-2.48508e-06	-4.97015e-06	0.748058
-2.48544e-06	-4.97089e-06	0.747258
-2.44755e-06	-4.89509e-06	0.750058
-2.41197e-06	-4.82393e-06	0.749718
-2.3935e-06	-4.78699e-06	0.749381
-2.41664e-06	-4.83328e-06	0.748923
-2.4299e-06	-4.85979e-06	0.746453
-2.44938e-06	-4.89876e-06	0.745263
-2.45583e-06	-4.91165e-06	0.744772
-2.45066e-06	-4.90131e-06	0.745126
-2.45262e-06	-4.90524e-06	0.745041
-2.46337e-06	-4.92673e-06	0.746465
-2.44267e-06	-4.88533e-06	0.747256
-2.45147e-06	-4.90294e-06	0.748122
-2.48699e-06	-4.97397e-06	0.745962
-2.49357e-06	-4.98713e-06	0.746589
-2.51011e-06	-5.02021e-06	0.744715
-2.49183e-06	-4.98365e-06	0.742827
-2.48369e-06	-4.96737e-06	0.744342
-2.48266e-06	-4.96532e-06	0.745479
-2.5056e-06	-5.0112e-06	0.746226
-2.51586e-06	-5.03172e-06	0.746568
-2.51892e-06	-5.03783e-06	0.747354
-2.51567e-06	-5.03133e-06	0.746861
-2.52899e-06	-5.05797e-06	0.747175
-2.54509e-06	-5.09018e-06	0.746404
-2.53663e-06	-5.07326e-06	0.744817
-2.53144e-06	-5.06287e-06	0.743725
-2.51779e-06	-5.03557e-06	0.744819
-2.52136e-06	-5.04272e-06	0.744186
-2.52886e-06	-5.05772e-06	0.743672
-2.53468e-06	-5.06936e-06	0.740172
-2.52542e-06	-5.05083e-06	0.737076
-2.49329e-06	-4.98658e-06	0.735069
-2.49194e-06	-4.98387e-06	0.736161
-2.5053e-06	-5.0106e-06	0.735937
-2.4977e-06	-4.9954e-06	0.736768
-2.51288e-06	-5.02575e-06	0.738235
-2.51918e-06	-5.03835e-06	0.737051
-2.52259e-06	-5.04517e-06	0.736669
-2.53146e-06	-5.06291e-06	0.731548
-2.54181e-06	-5.08361e-06	0.729528
-2.54971e-06	-5.09942e-06	0.72468
-2.55069e-06	-5.10138e-06	0.723097
-2.55901e-06	-5.11802e-06	0.72241
-2.56574e-06	-5.13147e-06	0.720604
-2.56306e-06	-5.12611e-06	0.722645
-2.55682e-06	-5.11363e-06	0.724482
-2.55429e-06	-5.10857e-06	0.72558
-2.57776e-06	-5.15552e-06	0.726116
-2.5569e-06	-5.11379e-06	0.725276
-2.55978e-06	-5.11955e-06	0.724947
-2.57631e-06	-5.15262e-06	0.724721
-2.57519e-06	-5.15038e-06	0.724134
-2.57631e-06	-5.15262e-06	0.723457
-2.58826e-06	-5.17652e-06	0.721783
-2.60175e-06	-5.20349e-06	0.719022
-2.6193e-06	-5.23859e-06	0.716835
-2.71339e-06	-5.42678e-06	0.714783
-2.77381e-06	-5.5476e-06	0.715306
-2.81036e-06	-5.6207e-06	0.716864
-2.75434e-06	-5.50867e-06	0.714961
-2.68717e-06	-5.37434e-06	0.715257
-2.69356e-06	-5.38711e-06	0.714627
-2.70435e-06	-5.40869e-06	0.717343
-2.70168e-06	-5.40335e-06	0.718091
-2.6876e-06	-5.37518e-06	0.72055
-2.70047e-06	-5.40093e-06	0.721359
-2.69869e-06	-5.39738e-06	0.721043
-2.67795e-06	-5.35589e-06	0.721091
-2.69097e-06	-5.38193e-06	0.72052
-2.70381e-06	-5.40762e-06	0.720578
-2.72828e-06	-5.45656e-06	0.719391
-2.70709e-06	-5.41418e-06	0.71979
-2.69672e-06	-5.39344e-06	0.715524
-2.69746e-06	-5.39492e-06	0.713392
-2.71373e-06	-5.42745e-06	0.714557
-2.72303e-06	-5.44605e-06	0.714964
-2.70988e-06	-5.41976e-06	0.714544
-2.70152e-06	-5.40302e-06	0.712542
-2.68907e-06	-5.37813e-06	0.712305
-2.71309e-06	-5.42617e-06	0.713258
-2.73776e-06	-5.47551e-06	0.713222
-2.72409e-06	-5.44817e-06	0.714873
-2.64764e-06	-5.29527e-06	0.71321
-2.64099e-06	-5.28198e-06	0.712566
-2.65021e-06	-5.30041e-06	0.710669
-2.64954e-06	-5.29908e-06	0.710127
-2.64581e-06	-5.29161e-06	0.709384
-2.65042e-06	-5.30084e-06	0.705357
-2.65973e-06	-5.31946e-06	0.704482
-2.65562e-06	-5.31124e-06	0.702695
-2.63632e-06	-5.27263e-06	0.703059
-2.62788e-06	-5.25575e-06	0.701446
-2.66251e-06	-5.32502e-06	0.701365
-2.67717e-06	-5.35434e-06	0.698861
-2.66722e-06	-5.33443e-06	0.697751
-2.66244e-06	-5.32487e-06	0.697687
-2.65552e-06	-5.31103e-06	0.697391
-2.66692e-06	-5.33384e-06	0.697061
-2.65441e-06	-5.30881e-06	0.696525
-2.64494e-06	-5.28988e-06	0.696125
-2.63858e-06	-5.27715e-06	0.694583
-2.60069e-06	-5.20137e-06	0.694885
-2.60482e-06	-5.20963e-06	0.695633
-2.60657e-06	-5.21314e-06	0.695578
-2.624e-06	-5.248e-06	0.697
-2.64601e-06	-5.29203e-06	0.699888
-2.65825e-06	-5.3165e-06	0.701166
-2.66118e-06	-5.32235e-06	0.702492
-2.6541e-06	-5.30819e-06	0.700422
-2.62489e-06	-5.24977e-06	0.697103
-2.61283e-06	-5.22566e-06	0.697596
-2.61942e-06	-5.23883e-06	0.698046
-2.65435e-06	-5.3087e-06	0.698006
-2.68984e-06	-5.37968e-06	0.700564
-2.68046e-06	-5.36092e-06	0.700252
-2.70047e-06	-5.40093e-06	0.700848
-2.73886e-06	-5.47771e-06	0.700735
-2.78103e-06	-5.56205e-06	0.699584
-2.72377e-06	-5.44754e-06	0.697804
-2.77814e-06	-5.55627e-06	0.69803
-2.79142e-06	-5.58283e-06	0.696701
-2.77546e-06	-5.55091e-06	0.698421
-2.78056e-06	-5.56111e-06	0.699271
-2.85313e-06	-5.70625e-06	0.698129
-2.92154e-06	-5.84307e-06	0.698678
-2.91931e-06	-5.83861e-06	0.697102
-2.96855e-06	-5.93708e-06	0.694506
-3.01366e-06	-6.02731e-06	0.693104
-3.01738e-06	-6.03475e-06	0.689242
-3.00747e-06	-6.01492e-06	0.69
-3.01872e-06	-6.03743e-06	0.689066
-2.96877e-06	-5.93752e-06	0.687459
-2.95092e-06	-5.90182e-06	0.686149
-3.02681e-06	-6.0536e-06	0.68333
-3.03157e-06	-6.06313e-06	0.680602
-2.95711e-06	-5.91422e-06	0.681201
-2.96185e-06	-5.92369e-06	0.68014
-2.99913e-06	-5.99826e-06	0.676026
-2.98547e-06	-5.97093e-06	0.676019
-2.9648e-06	-5.92958e-06	0.67731
-2.9744e-06	-5.94878e-06	0.67643
-2.97248e-06	-5.94496e-06	0.676493
-2.97209e-06	-5.94417e-06	0.674909
-2.93677e-06	-5.87353e-06	0.675361
-2.96187e-06	-5.92374e-06	0.675277
-2.94891e-06	-5.89781e-06	0.676157
-2.93095e-06	-5.86189e-06	0.677766
-2.91779e-06	-5.83556e-06	0.680971
-2.91321e-06	-5.82641e-06	0.678156
-2.91104e-06	-5.82206e-06	0.675624
-2.90266e-06	-5.80531e-06	0.674818
-2.93374e-06	-5.86746e-06	0.673931
-2.93599e-06	-5.87197e-06	0.669861
-2.93141e-06	-5.8628e-06	0.667631
-2.89019e-06	-5.78037e-06	0.66698
-2.86641e-06	-5.73282e-06	0.665663
-2.80253e-06	-5.60505e-06	0.665689
-2.79044e-06	-5.58088e-06	0.664778
-2.81182e-06	-5.62364e-06	0.664448
-2.79458e-06	-5.58916e-06	0.663608
-2.76878e-06	-5.53754e-06	0.662167
-2.77115e-06	-5.54229e-06	0.663526
-2.7389e-06	-5.47779e-06	0.66452
-2.71712e-06	-5.43424e-06	0.66342
-2.69966e-06	-5.39931e-06	0.662652
-2.71438e-06	-5.42876e-06	0.66141
-2.71258e-06	-5.42515e-06	0.660034
-2.72766e-06	-5.45531e-06	0.656958
